"Time (EpMin)","x (km)","y (km)","z (km)","vx (km/min)","vy (km/min)","vz (km/min)"
0.00000,-42163.139028,506.611584,80.144315,-2.216398,-184.461721,0.001674
1.00000,-42164.952020,322.131923,80.145235,-1.409312,-184.469653,0.000140
2.00000,-42165.957851,137.646096,80.144621,-0.602198,-184.474053,-0.001394
3.00000,-42166.156501,-46.842366,80.142473,0.204928,-184.474922,-0.002928
4.00000,-42165.547967,-231.329931,80.138790,1.012049,-184.472260,-0.004462
5.00000,-42164.132260,-415.813068,80.133574,1.819151,-184.466066,-0.005996
6.00000,-42161.909407,-600.288245,80.126823,2.626218,-184.456341,-0.007529
7.00000,-42158.879451,-784.751931,80.118539,3.433235,-184.443085,-0.009063
8.00000,-42155.042450,-969.200594,80.108721,4.240186,-184.426299,-0.010597
9.00000,-42150.398477,-1153.630704,80.097370,5.047056,-184.405981,-0.012130
10.00000,-42144.947621,-1338.038730,80.084485,5.853830,-184.382134,-0.013663
11.00000,-42138.689986,-1522.421142,80.070067,6.660491,-184.354757,-0.015196
12.00000,-42131.625693,-1706.774410,80.054117,7.467025,-184.323851,-0.016728
13.00000,-42123.754877,-1891.095006,80.036634,8.273416,-184.289417,-0.018260
14.00000,-42115.077688,-2075.379401,80.017619,9.079648,-184.251455,-0.019792
15.00000,-42105.594292,-2259.624066,79.997072,9.885707,-184.209965,-0.021324
16.00000,-42095.304871,-2443.825476,79.974994,10.691576,-184.164949,-0.022855
17.00000,-42084.209622,-2627.980104,79.951385,11.497241,-184.116408,-0.024385
18.00000,-42072.308757,-2812.084425,79.926245,12.302686,-184.064342,-0.025916
19.00000,-42059.602504,-2996.134914,79.899575,13.107895,-184.008753,-0.027445
20.00000,-42046.091106,-3180.128048,79.871376,13.912853,-183.949641,-0.028974
21.00000,-42031.774822,-3364.060305,79.841648,14.717545,-183.887008,-0.030503
22.00000,-42016.653926,-3547.928164,79.810392,15.521956,-183.820855,-0.032031
23.00000,-42000.728708,-3731.728105,79.777608,16.326069,-183.751183,-0.033558
24.00000,-41983.999472,-3915.456611,79.743297,17.129869,-183.677993,-0.035085
25.00000,-41966.466538,-4099.110162,79.707459,17.933342,-183.601288,-0.036611
26.00000,-41948.130243,-4282.685245,79.670095,18.736471,-183.521067,-0.038136
27.00000,-41928.990937,-4466.178344,79.631206,19.539242,-183.437334,-0.039661
28.00000,-41909.048986,-4649.585948,79.590793,20.341638,-183.350089,-0.041185
29.00000,-41888.304773,-4832.904545,79.548856,21.143646,-183.259334,-0.042708
30.00000,-41866.758694,-5016.130626,79.505397,21.945248,-183.165071,-0.044230
31.00000,-41844.411162,-5199.260683,79.460416,22.746430,-183.067301,-0.045752
32.00000,-41821.262605,-5382.291211,79.413913,23.547177,-182.966027,-0.047272
33.00000,-41797.313465,-5565.218706,79.365890,24.347473,-182.861251,-0.048792
34.00000,-41772.564202,-5748.039667,79.316348,25.147304,-182.752974,-0.050311
35.00000,-41747.015289,-5930.750593,79.265288,25.946652,-182.641199,-0.051828
36.00000,-41720.667215,-6113.347987,79.212710,26.745504,-182.525927,-0.053345
37.00000,-41693.520484,-6295.828353,79.158616,27.543844,-182.407161,-0.054861
38.00000,-41665.575617,-6478.188199,79.103007,28.341657,-182.284904,-0.056375
39.00000,-41636.833148,-6660.424034,79.045883,29.138927,-182.159157,-0.057889
40.00000,-41607.293627,-6842.532368,78.987247,29.935640,-182.029923,-0.059402
41.00000,-41576.957619,-7024.509716,78.927098,30.731779,-181.897204,-0.060913
42.00000,-41545.825707,-7206.352594,78.865438,31.527330,-181.761004,-0.062423
43.00000,-41513.898485,-7388.057521,78.802269,32.322278,-181.621324,-0.063932
44.00000,-41481.176564,-7569.621019,78.737591,33.116606,-181.478167,-0.065440
45.00000,-41447.660572,-7751.039612,78.671406,33.910301,-181.331536,-0.066946
46.00000,-41413.351149,-7932.309828,78.603715,34.703347,-181.181434,-0.068452
47.00000,-41378.248952,-8113.428196,78.534519,35.495728,-181.027863,-0.069956
48.00000,-41342.354654,-8294.391249,78.463820,36.287430,-180.870827,-0.071458
49.00000,-41305.668942,-8475.195522,78.391619,37.078437,-180.710329,-0.072959
50.00000,-41268.192517,-8655.837556,78.317917,37.868735,-180.546372,-0.074459
51.00000,-41229.926098,-8836.313891,78.242716,38.658307,-180.378958,-0.075958
52.00000,-41190.870416,-9016.621073,78.166017,39.447140,-180.208091,-0.077455
53.00000,-41151.026219,-9196.755651,78.087822,40.235217,-180.033775,-0.078950
54.00000,-41110.394271,-9376.714175,78.008132,41.022524,-179.856012,-0.080444
55.00000,-41068.975349,-9556.493202,77.926949,41.809046,-179.674806,-0.081936
56.00000,-41026.770245,-9736.089289,77.844273,42.594767,-179.490161,-0.083427
57.00000,-40983.779768,-9915.498999,77.760108,43.379673,-179.302079,-0.084916
58.00000,-40940.004741,-10094.718897,77.674455,44.163749,-179.110566,-0.086404
59.00000,-40895.446002,-10273.745552,77.587314,44.946979,-178.915623,-0.087890
60.00000,-40850.104403,-10452.575537,77.498688,45.729349,-178.717256,-0.089374
61.00000,-40803.980812,-10631.205430,77.408579,46.510844,-178.515467,-0.090857
62.00000,-40757.076114,-10809.631809,77.316987,47.291448,-178.310262,-0.092338
63.00000,-40709.391205,-10987.851261,77.223916,48.071147,-178.101642,-0.093817
64.00000,-40660.926998,-11165.860373,77.129366,48.849925,-177.889614,-0.095294
65.00000,-40611.684421,-11343.655737,77.033340,49.627769,-177.674180,-0.096770
66.00000,-40561.664417,-11521.233950,76.935839,50.404662,-177.455345,-0.098243
67.00000,-40510.867943,-11698.591613,76.836866,51.180590,-177.233112,-0.099715
68.00000,-40459.295972,-11875.725330,76.736421,51.955539,-177.007488,-0.101185
69.00000,-40406.949490,-12052.631711,76.634508,52.729493,-176.778474,-0.102653
70.00000,-40353.829501,-12229.307369,76.531128,53.502438,-176.546077,-0.104119
71.00000,-40299.937020,-12405.748923,76.426282,54.274359,-176.310300,-0.105582
72.00000,-40245.273080,-12581.952993,76.319974,55.045240,-176.071147,-0.107044
73.00000,-40189.838726,-12757.916208,76.212204,55.815068,-175.828625,-0.108504
74.00000,-40133.635021,-12933.635199,76.102976,56.583828,-175.582736,-0.109962
75.00000,-40076.663040,-13109.106602,75.992291,57.351504,-175.333487,-0.111418
76.00000,-40018.923873,-13284.327058,75.880151,58.118082,-175.080880,-0.112871
77.00000,-39960.418626,-13459.293213,75.766558,58.883548,-174.824923,-0.114323
78.00000,-39901.148419,-13634.001717,75.651515,59.647887,-174.565618,-0.115772
79.00000,-39841.114386,-13808.449226,75.535024,60.411084,-174.302972,-0.117219
80.00000,-39780.317677,-13982.632401,75.417087,61.173124,-174.036990,-0.118664
81.00000,-39718.759456,-14156.547907,75.297707,61.933993,-173.767675,-0.120106
82.00000,-39656.440901,-14330.192415,75.176884,62.693677,-173.495035,-0.121546
83.00000,-39593.363204,-14503.562601,75.054623,63.452160,-173.219073,-0.122984
84.00000,-39529.527574,-14676.655146,74.930925,64.209429,-172.939795,-0.124419
85.00000,-39464.935232,-14849.466737,74.805792,64.965469,-172.657206,-0.125853
86.00000,-39399.587415,-15021.994065,74.679228,65.720265,-172.371313,-0.127283
87.00000,-39333.485373,-15194.233828,74.551234,66.473803,-172.082119,-0.128712
88.00000,-39266.630373,-15366.182729,74.421813,67.226069,-171.789632,-0.130137
89.00000,-39199.023694,-15537.837475,74.290967,67.977047,-171.493856,-0.131561
90.00000,-39130.666630,-15709.194782,74.158699,68.726725,-171.194797,-0.132981
91.00000,-39061.560490,-15880.251368,74.025011,69.475086,-170.892461,-0.134400
92.00000,-38991.706596,-16051.003959,73.889906,70.222118,-170.586854,-0.135815
93.00000,-38921.106287,-16221.449287,73.753387,70.967806,-170.277981,-0.137228
94.00000,-38849.760912,-16391.584089,73.615456,71.712135,-169.965848,-0.138639
95.00000,-38777.671839,-16561.405107,73.476116,72.455091,-169.650462,-0.140047
96.00000,-38704.840447,-16730.909091,73.335369,73.196660,-169.331828,-0.141452
97.00000,-38631.268130,-16900.092797,73.193218,73.936828,-169.009952,-0.142854
98.00000,-38556.956297,-17068.952984,73.049666,74.675580,-168.684842,-0.144254
99.00000,-38481.906370,-17237.486422,72.904716,75.412904,-168.356502,-0.145651
100.00000,-38406.119786,-17405.689884,72.758370,76.148783,-168.024939,-0.147045
101.00000,-38329.597996,-17573.560149,72.610631,76.883205,-167.690160,-0.148436
102.00000,-38252.342464,-17741.094004,72.461502,77.616155,-167.352171,-0.149825
103.00000,-38174.354670,-17908.288243,72.310986,78.347619,-167.010978,-0.151210
104.00000,-38095.636106,-18075.139665,72.159086,79.077583,-166.666588,-0.152593
105.00000,-38016.188279,-18241.645074,72.005805,79.806034,-166.319007,-0.153973
106.00000,-37936.012710,-18407.801286,71.851145,80.532957,-165.968243,-0.155349
107.00000,-37855.110935,-18573.605117,71.695110,81.258338,-165.614301,-0.156723
108.00000,-37773.484501,-18739.053395,71.537702,81.982164,-165.257190,-0.158094
109.00000,-37691.134971,-18904.142952,71.378924,82.704420,-164.896914,-0.159462
110.00000,-37608.063922,-19068.870629,71.218781,83.425093,-164.533483,-0.160827
111.00000,-37524.272944,-19233.233271,71.057273,84.144169,-164.166901,-0.162189
112.00000,-37439.763640,-19397.227732,70.894406,84.861635,-163.797177,-0.163547
113.00000,-37354.537629,-19560.850873,70.730182,85.577476,-163.424317,-0.164903
114.00000,-37268.596542,-19724.099562,70.564603,86.291678,-163.048329,-0.166255
115.00000,-37181.942025,-19886.970673,70.397674,87.004229,-162.669219,-0.167604
116.00000,-37094.575735,-20049.461089,70.229397,87.715114,-162.286996,-0.168950
117.00000,-37006.499346,-20211.567700,70.059775,88.424320,-161.901666,-0.170293
118.00000,-36917.714544,-20373.287401,69.888813,89.131834,-161.513237,-0.171632
119.00000,-36828.223028,-20534.617098,69.716512,89.837641,-161.121716,-0.172968
120.00000,-36738.026511,-20695.553701,69.542877,90.541728,-160.727110,-0.174301
121.00000,-36647.126720,-20856.094131,69.367911,91.244083,-160.329428,-0.175631
122.00000,-36555.525395,-21016.235314,69.191616,91.944690,-159.928677,-0.176957
123.00000,-36463.224289,-21175.974184,69.013998,92.643538,-159.524864,-0.178279
124.00000,-36370.225170,-21335.307683,68.835058,93.340611,-159.117997,-0.179599
125.00000,-36276.529818,-21494.232762,68.654800,94.035899,-158.708084,-0.180915
126.00000,-36182.140026,-21652.746378,68.473228,94.729386,-158.295133,-0.182227
127.00000,-36087.057601,-21810.845496,68.290345,95.421059,-157.879152,-0.183536
128.00000,-35991.284363,-21968.527091,68.106155,96.110906,-157.460149,-0.184842
129.00000,-35894.822147,-22125.788143,67.920661,96.798913,-157.038131,-0.186143
130.00000,-35797.672797,-22282.625643,67.733867,97.485067,-156.613107,-0.187442
131.00000,-35699.838175,-22439.036587,67.545776,98.169355,-156.185086,-0.188736
132.00000,-35601.320153,-22595.017982,67.356392,98.851764,-155.754074,-0.190028
133.00000,-35502.120616,-22750.566842,67.165719,99.532281,-155.320081,-0.191315
134.00000,-35402.241464,-22905.680189,66.973760,100.210892,-154.883114,-0.192599
135.00000,-35301.684609,-23060.355054,66.780519,100.887584,-154.443183,-0.193879
136.00000,-35200.451976,-23214.588476,66.585999,101.562346,-154.000295,-0.195156
137.00000,-35098.545503,-23368.377502,66.390205,102.235163,-153.554459,-0.196428
138.00000,-34995.967139,-23521.719188,66.193139,102.906023,-153.105683,-0.197697
139.00000,-34892.718850,-23674.610600,65.994807,103.574913,-152.653977,-0.198962
140.00000,-34788.802612,-23827.048809,65.795211,104.241821,-152.199348,-0.200224
141.00000,-34684.220413,-23979.030899,65.594356,104.906733,-151.741806,-0.201481
142.00000,-34578.974256,-24130.553959,65.392245,105.569637,-151.281359,-0.202735
143.00000,-34473.066156,-24281.615090,65.188882,106.230519,-150.818016,-0.203985
144.00000,-34366.498139,-24432.211399,64.984271,106.889369,-150.351786,-0.205231
145.00000,-34259.272247,-24582.340003,64.778417,107.546172,-149.882678,-0.206473
146.00000,-34151.390531,-24731.998029,64.571322,108.200916,-149.410701,-0.207711
147.00000,-34042.855056,-24881.182611,64.362991,108.853589,-148.935863,-0.208945
148.00000,-33933.667902,-25029.890895,64.153428,109.504179,-148.458175,-0.210175
149.00000,-33823.831156,-25178.120032,63.942636,110.152672,-147.977644,-0.211401
150.00000,-33713.346923,-25325.867187,63.730621,110.799056,-147.494281,-0.212623
151.00000,-33602.217318,-25473.129529,63.517386,111.443320,-147.008094,-0.213840
152.00000,-33490.444466,-25619.904241,63.302934,112.085450,-146.519093,-0.215054
153.00000,-33378.030509,-25766.188512,63.087271,112.725434,-146.027287,-0.216264
154.00000,-33264.977599,-25911.979542,62.870400,113.363260,-145.532686,-0.217469
155.00000,-33151.287898,-26057.274541,62.652326,113.998917,-145.035299,-0.218671
156.00000,-33036.963584,-26202.070727,62.433052,114.632391,-144.535136,-0.219868
157.00000,-32922.006845,-26346.365328,62.212583,115.263671,-144.032206,-0.221061
158.00000,-32806.419882,-26490.155582,61.990923,115.892744,-143.526518,-0.222250
159.00000,-32690.204908,-26633.438736,61.768076,116.519599,-143.018083,-0.223434
160.00000,-32573.364146,-26776.212048,61.544047,117.144223,-142.506910,-0.224614
161.00000,-32455.899835,-26918.472784,61.318840,117.766605,-141.993010,-0.225790
162.00000,-32337.814222,-27060.218221,61.092458,118.386732,-141.476391,-0.226962
163.00000,-32219.109568,-27201.445646,60.864908,119.004593,-140.957064,-0.228129
164.00000,-32099.788145,-27342.152355,60.636192,119.620176,-140.435038,-0.229292
165.00000,-31979.852237,-27482.335655,60.406315,120.233469,-139.910324,-0.230451
166.00000,-31859.304141,-27621.992862,60.175282,120.844460,-139.382932,-0.231605
167.00000,-31738.146164,-27761.121303,59.943097,121.453138,-138.852872,-0.232754
168.00000,-31616.380626,-27899.718314,59.709764,122.059491,-138.320153,-0.233899
169.00000,-31494.009857,-28037.781242,59.475288,122.663508,-137.784787,-0.235040
170.00000,-31371.036199,-28175.307444,59.239674,123.265176,-137.246783,-0.236176
171.00000,-31247.462008,-28312.294288,59.002926,123.864485,-136.706152,-0.237308
172.00000,-31123.289648,-28448.739151,58.765048,124.461423,-136.162904,-0.238435
173.00000,-30998.521496,-28584.639422,58.526045,125.055978,-135.617049,-0.239558
174.00000,-30873.159942,-28719.992498,58.285921,125.648139,-135.068598,-0.240676
175.00000,-30747.207384,-28854.795789,58.044682,126.237895,-134.517562,-0.241789
176.00000,-30620.666234,-28989.046714,57.802332,126.825234,-133.963950,-0.242898
177.00000,-30493.538914,-29122.742704,57.558875,127.410146,-133.407774,-0.244002
178.00000,-30365.827858,-29255.881198,57.314316,127.992618,-132.849044,-0.245102
179.00000,-30237.535511,-29388.459649,57.068660,128.572640,-132.287771,-0.246196
180.00000,-30108.664328,-29520.475517,56.821912,129.150201,-131.723966,-0.247286
181.00000,-29979.216777,-29651.926277,56.574076,129.725290,-131.157639,-0.248372
182.00000,-29849.195335,-29782.809412,56.325156,130.297896,-130.588802,-0.249452
183.00000,-29718.602491,-29913.122416,56.075159,130.868007,-130.017464,-0.250528
184.00000,-29587.440746,-30042.862795,55.824088,131.435613,-129.443638,-0.251599
185.00000,-29455.712610,-30172.028065,55.571948,132.000703,-128.867333,-0.252665
186.00000,-29323.420605,-30300.615753,55.318744,132.563266,-128.288562,-0.253727
187.00000,-29190.567263,-30428.623398,55.064481,133.123291,-127.707335,-0.254783
188.00000,-29057.155128,-30556.048550,54.809165,133.680768,-127.123663,-0.255835
189.00000,-28923.186753,-30682.888768,54.552798,134.235686,-126.537558,-0.256881
190.00000,-28788.664703,-30809.141626,54.295388,134.788034,-125.949031,-0.257923
191.00000,-28653.591553,-30934.804707,54.036938,135.337802,-125.358092,-0.258960
192.00000,-28517.969889,-31059.875603,53.777454,135.884979,-124.764754,-0.259992
193.00000,-28381.802307,-31184.351923,53.516940,136.429555,-124.169027,-0.261019
194.00000,-28245.091414,-31308.231282,53.255402,136.971520,-123.570923,-0.262041
195.00000,-28107.839827,-31431.511309,52.992844,137.510862,-122.970454,-0.263058
196.00000,-27970.050172,-31554.189644,52.729271,138.047572,-122.367631,-0.264070
197.00000,-27831.725089,-31676.263940,52.464689,138.581639,-121.762465,-0.265076
198.00000,-27692.867224,-31797.731858,52.199103,139.113054,-121.154969,-0.266078
199.00000,-27553.479236,-31918.591074,51.932517,139.641805,-120.545153,-0.267075
200.00000,-27413.563793,-32038.839274,51.664938,140.167883,-119.933030,-0.268066
201.00000,-27273.123574,-32158.474156,51.396369,140.691278,-119.318610,-0.269053
202.00000,-27132.161267,-32277.493430,51.126816,141.211980,-118.701907,-0.270034
203.00000,-26990.679571,-32395.894818,50.856285,141.729979,-118.082931,-0.271010
204.00000,-26848.681193,-32513.676053,50.584779,142.245264,-117.461695,-0.271981
205.00000,-26706.168852,-32630.834881,50.312306,142.757826,-116.838210,-0.272947
206.00000,-26563.145277,-32747.369058,50.038869,143.267656,-116.212489,-0.273907
207.00000,-26419.613205,-32863.276354,49.764474,143.774743,-115.584543,-0.274862
208.00000,-26275.575383,-32978.554550,49.489127,144.279078,-114.954384,-0.275812
209.00000,-26131.034570,-33093.201440,49.212832,144.780651,-114.322025,-0.276757
210.00000,-25985.993532,-33207.214828,48.935595,145.279452,-113.687478,-0.277696
211.00000,-25840.455045,-33320.592532,48.657421,145.775472,-113.050754,-0.278630
212.00000,-25694.421895,-33433.332381,48.378316,146.268702,-112.411866,-0.279559
213.00000,-25547.896879,-33545.432219,48.098285,146.759132,-111.770826,-0.280483
214.00000,-25400.882801,-33656.889897,47.817332,147.246752,-111.127646,-0.281401
215.00000,-25253.382475,-33767.703284,47.535464,147.731554,-110.482339,-0.282313
216.00000,-25105.398724,-33877.870258,47.252687,148.213527,-109.834917,-0.283220
217.00000,-24956.934383,-33987.388709,46.969004,148.692663,-109.185393,-0.284122
218.00000,-24807.992292,-34096.256541,46.684423,149.168953,-108.533778,-0.285019
219.00000,-24658.575303,-34204.471671,46.398947,149.642388,-107.880086,-0.285910
220.00000,-24508.686276,-34312.032026,46.112584,150.112957,-107.224329,-0.286795
221.00000,-24358.328081,-34418.935548,45.825337,150.580654,-106.566519,-0.287675
222.00000,-24207.503596,-34525.180190,45.537214,151.045467,-105.906669,-0.288549
223.00000,-24056.215708,-34630.763918,45.248218,151.507389,-105.244792,-0.289418
224.00000,-23904.467312,-34735.684711,44.958357,151.966411,-104.580900,-0.290282
225.00000,-23752.261315,-34839.940562,44.667634,152.422524,-103.915006,-0.291140
226.00000,-23599.600630,-34943.529472,44.376057,152.875719,-103.247122,-0.291992
227.00000,-23446.488179,-35046.449461,44.083629,153.325987,-102.577263,-0.292838
228.00000,-23292.926892,-35148.698558,43.790358,153.773320,-101.905439,-0.293680
229.00000,-23138.919711,-35250.274805,43.496249,154.217710,-101.231665,-0.294515
230.00000,-22984.469583,-35351.176257,43.201307,154.659148,-100.555953,-0.295345
231.00000,-22829.579464,-35451.400984,42.905538,155.097624,-99.878317,-0.296169
232.00000,-22674.252319,-35550.947067,42.608947,155.533132,-99.198768,-0.296987
233.00000,-22518.491123,-35649.812600,42.311541,155.965663,-98.517320,-0.297800
234.00000,-22362.298856,-35747.995690,42.013324,156.395207,-97.833986,-0.298607
235.00000,-22205.678509,-35845.494459,41.714303,156.821758,-97.148780,-0.299409
236.00000,-22048.633080,-35942.307039,41.414484,157.245307,-96.461713,-0.300204
237.00000,-21891.165575,-36038.431577,41.113872,157.665846,-95.772800,-0.300994
238.00000,-21733.279008,-36133.866234,40.812473,158.083367,-95.082054,-0.301778
239.00000,-21574.976403,-36228.609182,40.510292,158.497861,-94.389488,-0.302557
240.00000,-21416.260789,-36322.658607,40.207336,158.909321,-93.695115,-0.303329
241.00000,-21257.135205,-36416.012710,39.903610,159.317740,-92.998948,-0.304096
242.00000,-21097.602696,-36508.669703,39.599120,159.723108,-92.301001,-0.304857
243.00000,-20937.666317,-36600.627813,39.293872,160.125419,-91.601287,-0.305612
244.00000,-20777.329130,-36691.885279,38.987871,160.524665,-90.899819,-0.306361
245.00000,-20616.594203,-36782.440353,38.681125,160.920837,-90.196611,-0.307105
246.00000,-20455.464614,-36872.291304,38.373637,161.313930,-89.491677,-0.307842
247.00000,-20293.943447,-36961.436410,38.065415,161.703934,-88.785030,-0.308574
248.00000,-20132.033794,-37049.873966,37.756465,162.090842,-88.076683,-0.309300
249.00000,-19969.738755,-37137.602278,37.446791,162.474648,-87.366650,-0.310019
