"Time (EpMin)","x (km)","y (km)","z (km)","vx (km/min)","vy (km/min)","vz (km/min)"
0.00000,-15222.592114,8731.322109,12469.622591,-182.559053,-104.711558,-149.543552
1.00000,-15404.052122,8625.985185,12319.185923,-180.356614,-105.959765,-151.326178
2.00000,-15583.296696,8519.407658,12166.977491,-178.128236,-107.192734,-153.087039
3.00000,-15760.300055,8411.604856,12013.019184,-175.874240,-108.410285,-154.825883
4.00000,-15935.036743,8302.592285,11857.333146,-173.594949,-109.612245,-156.542460
5.00000,-16107.481630,8192.385621,11699.941768,-171.290691,-110.798440,-158.236523
6.00000,-16277.609913,8081.000716,11540.867686,-168.961798,-111.968700,-159.907828
7.00000,-16445.397125,7968.453589,11380.133779,-166.608604,-113.122857,-161.556135
8.00000,-16610.819134,7854.760426,11217.763162,-164.231449,-114.260744,-163.181206
9.00000,-16773.852149,7739.937579,11053.779190,-161.830673,-115.382198,-164.782808
10.00000,-16934.472722,7624.001562,10888.205445,-159.406623,-116.487057,-166.360712
11.00000,-17092.657753,7506.969049,10721.065742,-156.959647,-117.575163,-167.914688
12.00000,-17248.384491,7388.856873,10552.384118,-154.490096,-118.646359,-169.444516
13.00000,-17401.630539,7269.682019,10382.184834,-151.998327,-119.700492,-170.949973
14.00000,-17552.373857,7149.461628,10210.492368,-149.484697,-120.737408,-172.430844
15.00000,-17700.592766,7028.212991,10037.331413,-146.949568,-121.756960,-173.886916
16.00000,-17846.265948,6905.953544,9862.726873,-144.393304,-122.759001,-175.317979
17.00000,-17989.372451,6782.700873,9686.703860,-141.816273,-123.743387,-176.723827
18.00000,-18129.891695,6658.472703,9509.287690,-139.218846,-124.709975,-178.104259
19.00000,-18267.803470,6533.286901,9330.503880,-136.601397,-125.658628,-179.459076
20.00000,-18403.087940,6407.161472,9150.378142,-133.964301,-126.589208,-180.788083
21.00000,-18535.725650,6280.114555,8968.936382,-131.307938,-127.501582,-182.091088
22.00000,-18665.697522,6152.164421,8786.204696,-128.632691,-128.395618,-183.367905
23.00000,-18792.984864,6023.329474,8602.209364,-125.938943,-129.271188,-184.618349
24.00000,-18917.569370,5893.628242,8416.976848,-123.227082,-130.128167,-185.842241
25.00000,-19039.433122,5763.079379,8230.533790,-120.497499,-130.966430,-187.039406
26.00000,-19158.558592,5631.701661,8042.907004,-117.750586,-131.785857,-188.209670
27.00000,-19274.928648,5499.513983,7854.123474,-114.986737,-132.586331,-189.352865
28.00000,-19388.526554,5366.535356,7664.210352,-112.206351,-133.367735,-190.468827
29.00000,-19499.335972,5232.784906,7473.194951,-109.409828,-134.129959,-191.557396
30.00000,-19607.340965,5098.281868,7281.104744,-106.597569,-134.872892,-192.618415
31.00000,-19712.525999,4963.045588,7087.967356,-103.769978,-135.596427,-193.651731
32.00000,-19814.875946,4827.095514,6893.810566,-100.927464,-136.300461,-194.657195
33.00000,-19914.376088,4690.451200,6698.662297,-98.070434,-136.984892,-195.634664
34.00000,-20011.012112,4553.132298,6502.550617,-95.199299,-137.649621,-196.583996
35.00000,-20104.770121,4415.158558,6305.503729,-92.314472,-138.294553,-197.505056
36.00000,-20195.636631,4276.549822,6107.549974,-89.416369,-138.919596,-198.397710
37.00000,-20283.598573,4137.326026,5908.717821,-86.505406,-139.524659,-199.261830
38.00000,-20368.643295,3997.507194,5709.035867,-83.582001,-140.109655,-200.097291
39.00000,-20450.758568,3857.113434,5508.532831,-80.646576,-140.674500,-200.903975
40.00000,-20529.932580,3716.164937,5307.237549,-77.699551,-141.219114,-201.681764
41.00000,-20606.153946,3574.681976,5105.178972,-74.741352,-141.743417,-202.430547
42.00000,-20679.411702,3432.684899,4902.386160,-71.772404,-142.247334,-203.150216
43.00000,-20749.695312,3290.194127,4698.888279,-68.793133,-142.730793,-203.840668
44.00000,-20816.994669,3147.230155,4494.714597,-65.803968,-143.193725,-204.501803
45.00000,-20881.300093,3003.813543,4289.894478,-62.805339,-143.636062,-205.133526
46.00000,-20942.602336,2859.964918,4084.457379,-59.797677,-144.057741,-205.735747
47.00000,-21000.892580,2715.704968,3878.432847,-56.781415,-144.458701,-206.308378
48.00000,-21056.162444,2571.054442,3671.850513,-53.756987,-144.838885,-206.851338
49.00000,-21108.403977,2426.034142,3464.740088,-50.724827,-145.198238,-207.364548
50.00000,-21157.609667,2280.664926,3257.131358,-47.685372,-145.536709,-207.847935
51.00000,-21203.772436,2134.967702,3049.054183,-44.639059,-145.854248,-208.301428
52.00000,-21246.885645,1988.963423,2840.538488,-41.586326,-146.150810,-208.724964
53.00000,-21286.943094,1842.673088,2631.614262,-38.527612,-146.426353,-209.118480
54.00000,-21323.939021,1696.117737,2422.311553,-35.463356,-146.680836,-209.481920
55.00000,-21357.868106,1549.318447,2212.660464,-32.394000,-146.914224,-209.815233
56.00000,-21388.725469,1402.296333,2002.691146,-29.319986,-147.126482,-210.118369
57.00000,-21416.506671,1255.072538,1792.433799,-26.241754,-147.317580,-210.391286
58.00000,-21441.207719,1107.668236,1581.918660,-23.159748,-147.487490,-210.633944
59.00000,-21462.825058,960.104628,1371.176008,-20.074412,-147.636189,-210.846309
60.00000,-21481.355580,812.402936,1160.236151,-16.986188,-147.763654,-211.028349
61.00000,-21496.796620,664.584403,949.129426,-13.895521,-147.869868,-211.180039
62.00000,-21509.145956,516.670288,737.886197,-10.802856,-147.954815,-211.301356
63.00000,-21518.401814,368.681865,526.536844,-7.708637,-148.018483,-211.392284
64.00000,-21524.562862,220.640418,315.111763,-4.613310,-148.060863,-211.452809
65.00000,-21527.628213,72.567238,103.641362,-1.517319,-148.081948,-211.482923
66.00000,-21527.597427,-75.516379,-107.843944,1.578890,-148.081736,-211.482621
67.00000,-21524.470508,-223.589135,-319.313740,4.674873,-148.060227,-211.451903
68.00000,-21518.247906,-371.629734,-530.737612,7.770182,-148.017423,-211.390773
69.00000,-21508.930515,-519.616885,-742.085153,10.864375,-147.953331,-211.299241
70.00000,-21496.519677,-667.529304,-953.325965,13.957004,-147.867961,-211.177320
71.00000,-21481.017176,-815.345717,-1164.429669,17.047627,-147.761323,-211.025027
72.00000,-21462.425241,-963.044866,-1375.365903,20.135797,-147.633435,-210.842384
73.00000,-21440.746546,-1110.605509,-1586.104329,23.221072,-147.484313,-210.629417
74.00000,-21415.984210,-1258.006423,-1796.614639,26.303007,-147.313981,-210.386157
75.00000,-21388.141793,-1405.226408,-2006.866558,29.381159,-147.122461,-210.112640
76.00000,-21357.223300,-1552.244291,-2216.829846,32.455085,-146.909782,-209.808903
77.00000,-21323.233178,-1699.038928,-2426.474305,35.524344,-146.675974,-209.474991
78.00000,-21286.176315,-1845.589207,-2635.769786,38.588494,-146.421071,-209.110953
79.00000,-21246.058041,-1991.874050,-2844.686186,41.647093,-146.145109,-208.716839
80.00000,-21202.884125,-2137.872418,-3053.193459,44.699703,-145.848129,-208.292708
81.00000,-21156.660778,-2283.563315,-3261.261616,47.745884,-145.530172,-207.838620
82.00000,-21107.394646,-2428.925785,-3468.860734,50.785198,-145.191285,-207.354640
83.00000,-21055.092816,-2573.938924,-3675.960955,53.817209,-144.831517,-206.840838
84.00000,-20999.762809,-2718.581875,-3882.532493,56.841479,-144.450918,-206.297287
85.00000,-20941.412583,-2862.833836,-4088.545640,59.857574,-144.049545,-205.724067
86.00000,-20880.050531,-3006.674059,-4293.970765,62.865060,-143.627454,-205.121259
87.00000,-20815.685477,-3150.081857,-4498.778325,65.863505,-143.184706,-204.488951
88.00000,-20748.326678,-3293.036606,-4702.938864,68.852477,-142.721365,-203.827232
89.00000,-20677.983823,-3435.517745,-4906.423018,71.831547,-142.237498,-203.136199
90.00000,-20604.667028,-3577.504782,-5109.201523,74.800286,-141.733174,-202.415950
91.00000,-20528.386837,-3718.977297,-5311.245215,77.758267,-141.208465,-201.666590
92.00000,-20449.154221,-3859.914943,-5512.525035,80.705065,-140.663448,-200.888225
93.00000,-20366.980576,-4000.297450,-5713.012035,83.640255,-140.098201,-200.080969
94.00000,-20281.877720,-4140.104628,-5912.677381,86.563417,-139.512804,-199.244936
95.00000,-20193.857893,-4279.316370,-6111.492356,89.474128,-138.907342,-198.380248
96.00000,-20102.933753,-4417.912653,-6309.428367,92.371972,-138.281903,-197.487029
97.00000,-20009.118378,-4555.873546,-6506.456946,95.256530,-137.636575,-196.565406
98.00000,-19912.425260,-4693.179205,-6702.549756,98.127388,-136.971453,-195.615513
99.00000,-19812.868305,-4829.809885,-6897.678595,100.984134,-136.286631,-194.637487
100.00000,-19710.461833,-4965.745933,-7091.815398,103.826356,-135.582208,-193.631467
101.00000,-19605.220572,-5100.967800,-7284.932246,106.653645,-134.858285,-192.597599
102.00000,-19497.159657,-5235.456038,-7477.001364,109.465595,-134.114967,-191.536032
103.00000,-19386.294630,-5369.191304,-7667.995127,112.261802,-133.352360,-190.446917
104.00000,-19272.641435,-5502.154365,-7857.886068,115.041863,-132.570574,-189.330412
105.00000,-19156.216419,-5634.326097,-8046.646875,117.805378,-131.769722,-188.186677
106.00000,-19037.036326,-5765.687492,-8234.250400,120.551951,-130.949919,-187.015877
107.00000,-18915.118297,-5896.219657,-8420.669663,123.281185,-130.111282,-185.818180
108.00000,-18790.479866,-6025.903818,-8605.877852,125.992690,-129.253932,-184.593758
109.00000,-18663.138958,-6154.721324,-8789.848330,128.686073,-128.377993,-183.342788
110.00000,-18533.113888,-6282.653648,-8972.554638,131.360949,-127.483590,-182.065449
111.00000,-18400.423357,-6409.682392,-9153.970499,134.016932,-126.570852,-180.761925
112.00000,-18265.086449,-6535.789284,-9334.069822,136.653641,-125.639911,-179.432404
113.00000,-18127.122627,-6660.956190,-9512.826705,139.270696,-124.690900,-178.077076
114.00000,-17986.551733,-6785.165106,-9690.215438,141.867721,-123.723955,-176.696137
115.00000,-17843.393986,-6908.398169,-9866.210508,144.444342,-122.739217,-175.289786
116.00000,-17697.669974,-7030.637655,-10040.786605,147.000189,-121.736826,-173.858224
117.00000,-17549.400655,-7151.865984,-10213.918621,149.534894,-120.716926,-172.401657
118.00000,-17398.607354,-7272.065721,-10385.581654,152.048093,-119.679665,-170.920295
119.00000,-17245.311758,-7391.219577,-10555.751017,154.539424,-118.625192,-169.414351
120.00000,-17089.535914,-7509.310417,-10724.402235,157.008529,-117.553657,-167.884042
121.00000,-16931.302226,-7626.321256,-10891.511053,159.455053,-116.465216,-166.329588
122.00000,-16770.633452,-7742.235266,-11057.053437,161.878644,-115.360025,-164.751211
123.00000,-16607.552699,-7857.035775,-11221.005578,164.278953,-114.238242,-163.149140
124.00000,-16442.083422,-7970.706273,-11383.343896,166.655635,-113.100029,-161.523605
125.00000,-16274.249419,-8083.230411,-11544.045044,169.008349,-111.945550,-159.874839
126.00000,-16104.074827,-8194.592007,-11703.085909,171.336755,-110.774971,-158.203079
127.00000,-15931.584122,-8304.775043,-11860.443619,173.640520,-109.588461,-156.508567
128.00000,-15756.802112,-8413.763674,-12016.095540,175.919311,-108.386188,-154.791545
129.00000,-15579.753934,-8521.542224,-12170.019288,178.172801,-107.168328,-153.052261
130.00000,-15400.465051,-8628.095193,-12322.192725,180.400667,-105.935055,-151.290965
131.00000,-15218.961250,-8733.407255,-12472.593964,182.602586,-104.686546,-149.507909
132.00000,-15035.268633,-8837.463265,-12621.201376,184.778244,-103.422980,-147.703352
133.00000,-14849.413620,-8940.248258,-12767.993586,186.927326,-102.144540,-145.877551
134.00000,-14661.422942,-9041.747449,-12912.949484,189.049524,-100.851410,-144.030770
135.00000,-14471.323635,-9141.946243,-13056.048221,191.144533,-99.543775,-142.163274
136.00000,-14279.143039,-9240.830227,-13197.269217,193.212051,-98.221823,-140.275332
137.00000,-14084.908795,-9338.385181,-13336.592161,195.251782,-96.885745,-138.367216
138.00000,-13888.648836,-9434.597073,-13473.997015,197.263430,-95.535733,-136.439199
139.00000,-13690.391391,-9529.452067,-13609.464018,199.246708,-94.171981,-134.491559
140.00000,-13490.164972,-9622.936521,-13742.973686,201.201330,-92.794685,-132.524577
141.00000,-13287.998377,-9715.036988,-13874.506819,203.127015,-91.404042,-130.538535
142.00000,-13083.920680,-9805.740224,-14004.044498,205.023486,-90.000254,-128.533718
143.00000,-12877.961234,-9895.033182,-14131.568093,206.890470,-88.583522,-126.510416
144.00000,-12670.149659,-9982.903022,-14257.059265,208.727699,-87.154050,-124.468918
145.00000,-12460.515843,-10069.337104,-14380.499963,210.534908,-85.712043,-122.409520
146.00000,-12249.089937,-10154.322999,-14501.872436,212.311837,-84.257709,-120.332516
147.00000,-12035.902347,-10237.848483,-14621.159226,214.058232,-82.791257,-118.238206
148.00000,-11820.983735,-10319.901544,-14738.343179,215.773841,-81.312898,-116.126890
149.00000,-11604.365010,-10400.470381,-14853.407440,217.458416,-79.822844,-113.998873
150.00000,-11386.077328,-10479.543405,-14966.335460,219.111717,-78.321310,-111.854461
151.00000,-11166.152081,-10557.109245,-15077.110999,220.733504,-76.808511,-109.693961
152.00000,-10944.620902,-10633.156745,-15185.718124,222.323545,-75.284666,-107.517685
153.00000,-10721.515650,-10707.674968,-15292.141215,223.881611,-73.749993,-105.325946
154.00000,-10496.868412,-10780.653196,-15396.364967,225.407478,-72.204714,-103.119059
155.00000,-10270.711499,-10852.080934,-15498.374389,226.900927,-70.649050,-100.897340
156.00000,-10043.077436,-10921.947909,-15598.154811,228.361743,-69.083225,-98.661111
157.00000,-9813.998962,-10990.244071,-15695.691881,229.789715,-67.507464,-96.410692
158.00000,-9583.509023,-11056.959600,-15790.971573,231.184638,-65.921994,-94.146407
159.00000,-9351.640768,-11122.084900,-15883.980182,232.546312,-64.327044,-91.868582
160.00000,-9118.427546,-11185.610603,-15974.704333,233.874541,-62.722841,-89.577544
161.00000,-8883.902898,-11247.527575,-16063.130976,235.169134,-61.109618,-87.273623
162.00000,-8648.100552,-11307.826910,-16149.247395,236.429904,-59.487606,-84.957150
163.00000,-8411.054424,-11366.499935,-16233.041203,237.656671,-57.857038,-82.628459
164.00000,-8172.798604,-11423.538213,-16314.500350,238.849257,-56.218149,-80.287883
165.00000,-7933.367360,-11478.933539,-16393.613121,240.007492,-54.571175,-77.935761
166.00000,-7692.795126,-11532.677947,-16470.368136,241.131209,-52.916353,-75.572429
167.00000,-7451.116502,-11584.763707,-16544.754357,242.220245,-51.253919,-73.198229
168.00000,-7208.366247,-11635.183329,-16616.761085,243.274446,-49.584115,-70.813502
169.00000,-6964.579274,-11683.929560,-16686.377965,244.293658,-47.907179,-68.418589
170.00000,-6719.790644,-11730.995390,-16753.594983,245.277735,-46.223353,-66.013837
171.00000,-6474.035563,-11776.374050,-16818.402474,246.226536,-44.532879,-63.599590
172.00000,-6227.349376,-11820.059013,-16880.791115,247.139924,-42.836000,-61.176197
173.00000,-5979.767562,-11862.043997,-16940.751935,248.017769,-41.132961,-58.744005
174.00000,-5731.325728,-11902.322963,-16998.276309,248.859943,-39.424006,-56.303364
175.00000,-5482.059607,-11940.890118,-17053.355965,249.666326,-37.709381,-53.854626
176.00000,-5232.005046,-11977.739916,-17105.982980,250.436801,-35.989332,-51.398142
177.00000,-4981.198011,-12012.867057,-17156.149785,251.171258,-34.264107,-48.934267
178.00000,-4729.674572,-12046.266488,-17203.849167,251.869591,-32.533955,-46.463353
179.00000,-4477.470904,-12077.933406,-17249.074263,252.531700,-30.799123,-43.985757
180.00000,-4224.623279,-12107.863257,-17291.818571,253.157489,-29.059862,-41.501835
181.00000,-3971.168061,-12136.051736,-17332.075943,253.746869,-27.316421,-39.011943
182.00000,-3717.141705,-12162.494789,-17369.840588,254.299755,-25.569051,-36.516442
183.00000,-3462.580743,-12187.188613,-17405.107075,254.816067,-23.818005,-34.015688
184.00000,-3207.521787,-12210.129657,-17437.870333,255.295731,-22.063532,-31.510042
185.00000,-2952.001521,-12231.314620,-17468.125649,255.738677,-20.305887,-28.999864
186.00000,-2696.056693,-12250.740457,-17495.868672,256.144843,-18.545321,-26.485516
187.00000,-2439.724114,-12268.404373,-17521.095411,256.514170,-16.782088,-23.967358
188.00000,-2183.040650,-12284.303827,-17543.802239,256.846605,-15.016441,-21.445753
189.00000,-1926.043217,-12298.436534,-17563.985890,257.142099,-13.248634,-18.921064
190.00000,-1668.768778,-12310.800461,-17581.643461,257.400611,-11.478922,-16.393654
191.00000,-1411.254335,-12321.393829,-17596.772412,257.622104,-9.707560,-13.863886
192.00000,-1153.536922,-12330.215115,-17609.370568,257.806544,-7.934801,-11.332124
193.00000,-895.653606,-12337.263049,-17619.436117,257.953907,-6.160900,-8.798732
194.00000,-637.641475,-12342.536620,-17626.967610,258.064170,-4.386114,-6.264075
195.00000,-379.537638,-12346.035067,-17631.963966,258.137318,-2.610697,-3.728517
196.00000,-121.379216,-12347.757889,-17634.424465,258.173340,-0.834904,-1.192422
197.00000,136.796664,-12347.704836,-17634.348753,258.172231,0.941008,1.343844
198.00000,394.952869,-12345.875917,-17631.736842,258.133992,2.716786,3.879916
199.00000,653.052272,-12342.271395,-17626.589107,258.058627,4.492172,6.415431
200.00000,911.057752,-12336.891788,-17618.906288,257.946148,6.266913,8.950023
201.00000,1168.932202,-12329.737870,-17608.689490,257.796571,8.040752,11.483328
202.00000,1426.638534,-12320.810670,-17595.940183,257.609917,9.813435,14.014981
203.00000,1684.139685,-12310.111471,-17580.660200,257.386213,11.584706,16.544618
204.00000,1941.398620,-12297.641813,-17562.851740,257.125491,13.354311,19.071876
205.00000,2198.378340,-12283.403489,-17542.517362,256.827789,15.121996,21.596392
206.00000,2455.041886,-12267.398547,-17519.659992,256.493150,16.887506,24.117801
207.00000,2711.352344,-12249.629288,-17494.282917,256.121622,18.650586,26.635741
208.00000,2967.272851,-12230.098268,-17466.389787,255.713258,20.410985,29.149851
209.00000,3222.766600,-12208.808296,-17435.984613,255.268116,22.168448,31.659768
210.00000,3477.796846,-12185.762434,-17403.071769,254.786262,23.922723,34.165132
211.00000,3732.326910,-12160.963997,-17367.655987,254.267764,25.673557,36.665582
212.00000,3986.320185,-12134.416551,-17329.742362,253.712697,27.420699,39.160759
213.00000,4239.740140,-12106.123914,-17289.336347,253.121140,29.163897,41.650304
214.00000,4492.550330,-12076.090156,-17246.443752,252.493179,30.902900,44.133858
215.00000,4744.714394,-12044.319595,-17201.070746,251.828904,32.637460,46.611065
216.00000,4996.196066,-12010.816801,-17153.223856,251.128411,34.367325,49.081569
217.00000,5246.959177,-11975.586593,-17102.909961,250.391800,36.092247,51.545013
218.00000,5496.967662,-11938.634037,-17050.136300,249.619177,37.811979,54.001045
219.00000,5746.185565,-11899.964448,-16994.910461,248.810654,39.526272,56.449309
220.00000,5994.577042,-11859.583388,-16937.240388,247.966346,41.234881,58.889455
221.00000,6242.106370,-11817.496663,-16877.134374,247.086376,42.937559,61.321132
222.00000,6488.737948,-11773.710328,-16814.601064,246.170869,44.634062,63.743989
223.00000,6734.436306,-11728.230679,-16749.649452,245.219957,46.324145,66.157678
224.00000,6979.166107,-11681.064258,-16682.288879,244.233778,48.007566,68.561853
225.00000,7222.892153,-11632.217848,-16612.529033,243.212472,49.684083,70.956167
226.00000,7465.579391,-11581.698474,-16540.379948,242.156187,51.353454,73.340275
227.00000,7707.192918,-11529.513402,-16465.851998,241.065075,53.015439,75.713836
228.00000,7947.697985,-11475.670137,-16388.955905,239.939293,54.669800,78.076508
229.00000,8187.060001,-11420.176424,-16309.702725,238.779002,56.316297,80.427951
230.00000,8425.244541,-11363.040243,-16228.103859,237.584369,57.954696,82.767826
231.00000,8662.217350,-11304.269811,-16144.171042,236.355567,59.584759,85.095797
232.00000,8897.944344,-11243.873582,-16057.916344,235.092772,61.206252,87.411530
233.00000,9132.391623,-11181.860241,-15969.352172,233.796165,62.818943,89.714691
234.00000,9365.525466,-11118.238708,-15878.491263,232.465934,64.422599,92.004950
235.00000,9597.312345,-11053.018132,-15785.346684,231.102268,66.016990,94.281976
236.00000,9827.718924,-10986.207893,-15689.931832,229.705366,67.601886,96.545442
237.00000,10056.712064,-10917.817601,-15592.260429,228.275426,69.177059,98.795023
238.00000,10284.258833,-10847.857092,-15492.346523,226.812656,70.742283,101.030395
