"Time (EpMin)","x (km)","y (km)","z (km)","vx (km/min)","vy (km/min)","vz (km/min)"
0.00000,13164.942682,-16410.580378,-4564.199804,90.464433,129.388204,-204.280374
1.00000,13254.458245,-16280.015178,-4768.147066,88.564548,131.739067,-203.609262
2.00000,13342.067532,-16147.108560,-4971.408566,86.651925,134.070983,-202.908866
3.00000,13427.757941,-16011.879640,-5173.955070,84.726840,136.383616,-202.179287
4.00000,13511.517150,-15874.347866,-5375.757448,82.789569,138.676635,-201.420631
5.00000,13593.333110,-15734.533019,-5576.786676,80.840391,140.949708,-200.633006
6.00000,13673.194057,-15592.455206,-5777.013841,78.879587,143.202511,-199.816526
7.00000,13751.088503,-15448.134863,-5976.410148,76.907438,145.434717,-198.971308
8.00000,13827.005246,-15301.592744,-6174.946917,74.924228,147.646007,-198.097473
9.00000,13900.933367,-15152.849926,-6372.595597,72.930243,149.836063,-197.195148
10.00000,13972.862235,-15001.927802,-6569.327759,70.925768,152.004568,-196.264462
11.00000,14042.781503,-14848.848076,-6765.115111,68.911093,154.151213,-195.305548
12.00000,14110.681117,-14693.632766,-6959.929493,66.886507,156.275686,-194.318546
13.00000,14176.551310,-14536.304195,-7153.742887,64.852301,158.377685,-193.303596
14.00000,14240.382610,-14376.884990,-7346.527418,62.808768,160.456904,-192.260846
15.00000,14302.165835,-14215.398079,-7538.255361,60.756202,162.513047,-191.190444
16.00000,14361.892101,-14051.866687,-7728.899140,58.694898,164.545817,-190.092544
17.00000,14419.552816,-13886.314333,-7918.431336,56.625152,166.554922,-188.967305
18.00000,14475.139689,-13718.764828,-8106.824691,54.547262,168.540072,-187.814889
19.00000,14528.644725,-13549.242269,-8294.052110,52.461527,170.500983,-186.635461
20.00000,14580.060228,-13377.771036,-8480.086666,50.368247,172.437372,-185.429191
21.00000,14629.378804,-13204.375791,-8664.901602,48.267723,174.348961,-184.196251
22.00000,14676.593360,-13029.081473,-8848.470338,46.160257,176.235475,-182.936821
23.00000,14721.697105,-12851.913291,-9030.766473,44.046152,178.096642,-181.651080
24.00000,14764.683553,-12672.896727,-9211.763790,41.925713,179.932195,-180.339214
25.00000,14805.546521,-12492.057527,-9391.436256,39.799243,181.741870,-179.001411
26.00000,14844.280132,-12309.421700,-9569.758031,37.667050,183.525406,-177.637864
27.00000,14880.878815,-12125.015513,-9746.703468,35.529439,185.282548,-176.248769
28.00000,14915.337307,-11938.865487,-9922.247120,33.386719,187.013042,-174.834326
29.00000,14947.650652,-11750.998394,-10096.363738,31.239196,188.716640,-173.394737
30.00000,14977.814202,-11561.441255,-10269.028281,29.087181,190.393096,-171.930211
31.00000,15005.823620,-11370.221331,-10440.215917,26.930983,192.042169,-170.440957
32.00000,15031.674876,-11177.366124,-10609.902024,24.770911,193.663622,-168.927190
33.00000,15055.364253,-10982.903370,-10778.062199,22.607276,195.257223,-167.389128
34.00000,15076.888345,-10786.861039,-10944.672255,20.440390,196.822741,-165.826992
35.00000,15096.244054,-10589.267323,-11109.708232,18.270565,198.359952,-164.241006
36.00000,15113.428598,-10390.150643,-11273.146394,16.098111,199.868635,-162.631399
37.00000,15128.439506,-10189.539636,-11434.963233,13.923343,201.348572,-160.998402
38.00000,15141.274617,-9987.463152,-11595.135478,11.746572,202.799551,-159.342250
39.00000,15151.932086,-9783.950256,-11753.640093,9.568111,204.221363,-157.663181
40.00000,15160.410381,-9579.030217,-11910.454281,7.388275,205.613803,-155.961436
41.00000,15166.708282,-9372.732507,-12065.555489,5.207376,206.976672,-154.237261
42.00000,15170.824883,-9165.086796,-12218.921409,3.025728,208.309773,-152.490904
43.00000,15172.759592,-8956.122947,-12370.529985,0.843644,209.612915,-150.722614
44.00000,15172.512131,-8745.871015,-12520.359412,-1.338560,210.885910,-148.932648
45.00000,15170.082536,-8534.361238,-12668.388142,-3.520572,212.128574,-147.121262
46.00000,15165.471156,-8321.624036,-12814.594884,-5.702078,213.340731,-145.288717
47.00000,15158.678653,-8107.690005,-12958.958610,-7.882764,214.522204,-143.435276
48.00000,15149.706006,-7892.589913,-13101.458560,-10.062316,215.672824,-141.561206
49.00000,15138.554505,-7676.354697,-13242.074236,-12.240420,216.792426,-139.666777
50.00000,15125.225753,-7459.015455,-13380.785417,-14.416765,217.880848,-137.752260
51.00000,15109.721667,-7240.603446,-13517.572153,-16.591035,218.937935,-135.817932
52.00000,15092.044477,-7021.150081,-13652.414770,-18.762920,219.963533,-133.864070
53.00000,15072.196726,-6800.686925,-13785.293875,-20.932106,220.957496,-131.890955
54.00000,15050.181268,-6579.245682,-13916.190358,-23.098282,221.919681,-129.898872
55.00000,15026.001269,-6356.858202,-14045.085392,-25.261136,222.849948,-127.888107
56.00000,14999.660207,-6133.556469,-14171.960440,-27.420356,223.748165,-125.858948
57.00000,14971.161870,-5909.372599,-14296.797255,-29.575633,224.614202,-123.811689
58.00000,14940.510358,-5684.338833,-14419.577882,-31.726657,225.447935,-121.746622
59.00000,14907.710078,-5458.487536,-14540.284662,-33.873117,226.249244,-119.664046
60.00000,14872.765747,-5231.851191,-14658.900236,-36.014706,227.018013,-117.564259
61.00000,14835.682393,-5004.462393,-14775.407544,-38.151115,227.754132,-115.447564
62.00000,14796.465347,-4776.353846,-14889.789830,-40.282037,228.457495,-113.314265
63.00000,14755.120250,-4547.558356,-15002.030643,-42.407166,229.128001,-111.164670
64.00000,14711.653049,-4318.108829,-15112.113840,-44.526195,229.765553,-108.999086
65.00000,14666.069995,-4088.038264,-15220.023589,-46.638821,230.370060,-106.817826
66.00000,14618.377643,-3857.379752,-15325.744371,-48.744739,230.941435,-104.621203
67.00000,14568.582854,-3626.166465,-15429.260980,-50.843646,231.479596,-102.409534
68.00000,14516.692788,-3394.431658,-15530.558529,-52.935241,231.984465,-100.183135
69.00000,14462.714909,-3162.208658,-15629.622448,-55.019223,232.455969,-97.942329
70.00000,14406.656979,-2929.530864,-15726.438491,-57.095292,232.894041,-95.687436
71.00000,14348.527061,-2696.431740,-15820.992733,-59.163150,233.298618,-93.418781
72.00000,14288.333516,-2462.944811,-15913.271574,-61.222498,233.669642,-91.136690
73.00000,14226.085000,-2229.103658,-16003.261744,-63.273041,234.007059,-88.841492
74.00000,14161.790467,-1994.941911,-16090.950300,-65.314485,234.310821,-86.533517
75.00000,14095.459162,-1760.493249,-16176.324630,-67.346534,234.580884,-84.213097
76.00000,14027.100626,-1525.791390,-16259.372456,-69.368898,234.817209,-81.880564
77.00000,13956.724691,-1290.870089,-16340.081833,-71.381285,235.019762,-79.536256
78.00000,13884.341478,-1055.763134,-16418.441154,-73.383406,235.188514,-77.180508
79.00000,13809.961397,-820.504336,-16494.439149,-75.374973,235.323441,-74.813660
80.00000,13733.595146,-585.127533,-16568.064888,-77.355699,235.424524,-72.436053
81.00000,13655.253707,-349.666575,-16639.307782,-79.325300,235.491747,-70.048027
82.00000,13574.948349,-114.155328,-16708.157585,-81.283492,235.525102,-67.649928
83.00000,13492.690620,121.372337,-16774.604394,-83.229994,235.524583,-65.242098
84.00000,13408.492352,356.882546,-16838.638654,-85.164525,235.490190,-62.824886
85.00000,13322.365653,592.341427,-16900.251154,-87.086808,235.421929,-60.398637
86.00000,13234.322910,827.715118,-16959.433033,-88.996566,235.319809,-57.963703
87.00000,13144.376786,1062.969764,-17016.175780,-90.893525,235.183845,-55.520431
88.00000,13052.540218,1298.071533,-17070.471234,-92.777411,235.014057,-53.069175
89.00000,12958.826413,1532.986612,-17122.311586,-94.647953,234.810468,-50.610286
90.00000,12863.248849,1767.681213,-17171.689381,-96.504884,234.573109,-48.144119
91.00000,12765.821272,2002.121584,-17218.597516,-98.347934,234.302013,-45.671027
92.00000,12666.557695,2236.274007,-17263.029245,-100.176840,233.997220,-43.191367
93.00000,12565.472394,2470.104805,-17304.978179,-101.991339,233.658772,-40.705495
94.00000,12462.579907,2703.580349,-17344.438283,-103.791169,233.286719,-38.213768
95.00000,12357.895032,2936.667060,-17381.403884,-105.576072,232.881115,-35.716546
96.00000,12251.432825,3169.331415,-17415.869663,-107.345790,232.442017,-33.214187
97.00000,12143.208598,3401.539951,-17447.830665,-109.100070,231.969490,-30.707051
98.00000,12033.237916,3633.259273,-17477.282292,-110.838659,231.463599,-28.195498
99.00000,11921.536594,3864.456054,-17504.220309,-112.561307,230.924420,-25.679891
100.00000,11808.120699,4095.097042,-17528.640842,-114.267766,230.352029,-23.160590
101.00000,11693.006541,4325.149068,-17550.540379,-115.957791,229.746508,-20.637958
102.00000,11576.210676,4554.579043,-17569.915769,-117.631139,229.107944,-18.112358
103.00000,11457.749903,4783.353972,-17586.764226,-119.287568,228.436430,-15.584153
104.00000,11337.641258,5011.440952,-17601.083327,-120.926842,227.732062,-13.053706
105.00000,11215.902016,5238.807178,-17612.871013,-122.548724,226.994941,-10.521383
106.00000,11092.549685,5465.419950,-17622.125588,-124.152981,226.225173,-7.987546
107.00000,10967.602007,5691.246678,-17628.845722,-125.739381,225.422869,-5.452560
108.00000,10841.076950,5916.254881,-17633.030447,-127.307698,224.588144,-2.916790
109.00000,10712.992713,6140.412200,-17634.679162,-128.857705,223.721119,-0.380601
110.00000,10583.367717,6363.686394,-17633.791630,-130.389180,222.821918,2.155644
111.00000,10452.220604,6586.045353,-17630.367978,-131.901902,221.890670,4.691578
112.00000,10319.570236,6807.457097,-17624.408699,-133.395654,220.927510,7.226837
113.00000,10185.435692,7027.889782,-17615.914651,-134.870220,219.932576,9.761057
114.00000,10049.836262,7247.311705,-17604.887053,-136.325389,218.906010,12.293873
115.00000,9912.791449,7465.691308,-17591.327494,-137.760952,217.847961,14.824921
116.00000,9774.320963,7682.997183,-17575.237922,-139.176701,216.758581,17.353837
117.00000,9634.444719,7899.198078,-17556.620651,-140.572434,215.638026,19.880257
118.00000,9493.182833,8114.262898,-17535.478360,-141.947950,214.486458,22.403818
119.00000,9350.555624,8328.160711,-17511.814089,-143.303051,213.304042,24.924157
120.00000,9206.583602,8540.860756,-17485.631242,-144.637541,212.090949,27.440911
121.00000,9061.287476,8752.332441,-17456.933583,-145.951229,210.847352,29.953718
122.00000,8914.688141,8962.545351,-17425.725241,-147.243927,209.573430,32.462218
123.00000,8766.806681,9171.469254,-17392.010704,-148.515447,208.269368,34.966048
124.00000,8617.664366,9379.074102,-17355.794821,-149.765608,206.935352,37.464850
125.00000,8467.282644,9585.330037,-17317.082800,-150.994230,205.571574,39.958264
126.00000,8315.683145,9790.207395,-17275.880209,-152.201135,204.178230,42.445930
127.00000,8162.887671,9993.676710,-17232.192974,-153.386150,202.755522,44.927493
128.00000,8008.918198,10195.708718,-17186.027378,-154.549105,201.303652,47.402593
129.00000,7853.796870,10396.274364,-17137.390060,-155.689833,199.822831,49.870876
130.00000,7697.545996,10595.344801,-17086.288017,-156.808169,198.313271,52.331987
131.00000,7540.188049,10792.891399,-17032.728596,-157.903953,196.775190,54.785571
132.00000,7381.745661,10988.885747,-16976.719502,-158.977026,195.208807,57.231275
133.00000,7222.241618,11183.299656,-16918.268789,-160.027236,193.614350,59.668749
134.00000,7061.698861,11376.105165,-16857.384865,-161.054430,191.992047,62.097641
135.00000,6900.140480,11567.274545,-16794.076485,-162.058461,190.342131,64.517602
136.00000,6737.589709,11756.780301,-16728.352754,-163.039184,188.664839,66.928284
137.00000,6574.069928,11944.595179,-16660.223126,-163.996459,186.960414,69.329340
138.00000,6409.604654,12130.692166,-16589.697398,-164.930147,185.229100,71.720425
139.00000,6244.217540,12315.044498,-16516.785714,-165.840115,183.471146,74.101195
140.00000,6077.932373,12497.625661,-16441.498560,-166.726232,181.686804,76.471308
141.00000,5910.773069,12678.409396,-16363.846764,-167.588370,179.876332,78.830423
142.00000,5742.763668,12857.369703,-16283.841493,-168.426405,178.039991,81.178200
143.00000,5573.928333,13034.480842,-16201.494256,-169.240217,176.178043,83.514302
144.00000,5404.291348,13209.717342,-16116.816893,-170.029688,174.290757,85.838393
145.00000,5233.877109,13383.054000,-16029.821585,-170.794705,172.378404,88.150138
146.00000,5062.710125,13554.465885,-15940.520843,-171.535159,170.441259,90.449206
147.00000,4890.815015,13723.928347,-15848.927510,-172.250942,168.479601,92.735264
148.00000,4718.216499,13891.417011,-15755.054760,-172.941951,166.493713,95.007986
149.00000,4544.939403,14056.907790,-15658.916093,-173.608088,164.483878,97.267043
150.00000,4371.008646,14220.376882,-15560.525336,-174.249256,162.450388,99.512112
151.00000,4196.449244,14381.800778,-15459.896640,-174.865364,160.393534,101.742868
152.00000,4021.286302,14541.156260,-15357.044478,-175.456322,158.313611,103.958992
153.00000,3845.545012,14698.420411,-15251.983641,-176.022045,156.210920,106.160164
154.00000,3669.250650,14853.570612,-15144.729240,-176.562453,154.085762,108.346067
155.00000,3492.428571,15006.584549,-15035.296700,-177.077467,151.938444,110.516389
156.00000,3315.104205,15157.440215,-14923.701760,-177.567014,149.769273,112.670815
157.00000,3137.303056,15306.115915,-14809.960471,-178.031023,147.578562,114.809038
158.00000,2959.050694,15452.590265,-14694.089189,-178.469427,145.366627,116.930748
159.00000,2780.372758,15596.842199,-14576.104581,-178.882163,143.133784,119.035641
160.00000,2601.294944,15738.850971,-14456.023614,-179.269172,140.880356,121.123414
161.00000,2421.843007,15878.596157,-14333.863559,-179.630399,138.606666,123.193767
162.00000,2242.042757,16016.057658,-14209.641986,-179.965791,136.313041,125.246402
163.00000,2061.920054,16151.215705,-14083.376760,-180.275299,133.999812,127.281024
164.00000,1881.500801,16284.050858,-13955.086040,-180.558881,131.667311,129.297340
165.00000,1700.810948,16414.544014,-13824.788278,-180.816494,129.315873,131.295061
166.00000,1519.876482,16542.676404,-13692.502213,-181.048101,126.945836,133.273898
167.00000,1338.723425,16668.429601,-13558.246871,-181.253670,124.557543,135.233568
168.00000,1157.377831,16791.785518,-13422.041561,-181.433171,122.151335,137.173788
169.00000,975.865781,16912.726414,-13283.905872,-181.586578,119.727559,139.094279
170.00000,794.213380,17031.234896,-13143.859671,-181.713869,117.286563,140.994766
171.00000,612.446754,17147.293918,-13001.923099,-181.815026,114.828700,142.874975
172.00000,430.592045,17260.886790,-12858.116570,-181.890033,112.354321,144.734635
173.00000,248.675408,17371.997174,-12712.460767,-181.938881,109.863783,146.573480
174.00000,66.723006,17480.609090,-12564.976637,-181.961562,107.357445,148.391244
175.00000,-115.238993,17586.706917,-12415.685393,-181.958073,104.835667,150.187666
176.00000,-297.184417,17690.275397,-12264.608506,-181.928415,102.298810,151.962488
177.00000,-479.087100,17791.299633,-12111.767703,-181.872591,99.747241,153.715454
178.00000,-660.920880,17889.765097,-11957.184967,-181.790610,97.181326,155.446313
179.00000,-842.659606,17985.657627,-11800.882530,-181.682484,94.601435,157.154815
180.00000,-1024.277138,18078.963432,-11642.882872,-181.548228,92.007938,158.840715
181.00000,-1205.747358,18169.669092,-11483.208716,-181.387861,89.401207,160.503770
182.00000,-1387.044165,18257.761561,-11321.883027,-181.201407,86.781620,162.143741
183.00000,-1568.141485,18343.228170,-11158.929007,-180.988892,84.149551,163.760393
184.00000,-1749.013273,18426.056628,-10994.370092,-180.750347,81.505379,165.353492
185.00000,-1929.633515,18506.235021,-10828.229949,-180.485807,78.849485,166.922810
186.00000,-2109.976234,18583.751819,-10660.532474,-180.195308,76.182252,168.468121
187.00000,-2290.015492,18658.595872,-10491.301784,-179.878894,73.504061,169.989202
188.00000,-2469.725397,18730.756417,-10320.562219,-179.536609,70.815299,171.485836
189.00000,-2649.080103,18800.223075,-10148.338334,-179.168503,68.116352,172.957806
190.00000,-2828.053813,18866.985855,-9974.654900,-178.774628,65.407609,174.404900
191.00000,-3006.620789,18931.035156,-9799.536894,-178.355042,62.689458,175.826912
192.00000,-3184.755347,18992.361766,-9623.009505,-177.909805,59.962292,177.223636
193.00000,-3362.431869,19050.956865,-9445.098118,-177.438980,57.226501,178.594872
194.00000,-3539.624801,19106.812025,-9265.828323,-176.942636,54.482480,179.940421
195.00000,-3716.308659,19159.919213,-9085.225902,-176.420844,51.730624,181.260092
196.00000,-3892.458031,19210.270792,-8903.316830,-175.873678,48.971327,182.553693
197.00000,-4068.047583,19257.859520,-8720.127269,-175.301218,46.204987,183.821039
198.00000,-4243.052063,19302.678552,-8535.683565,-174.703546,43.432002,185.061947
199.00000,-4417.446300,19344.721442,-8350.012246,-174.080748,40.652771,186.276240
200.00000,-4591.205213,19383.982145,-8163.140015,-173.432913,37.867693,187.463742
201.00000,-4764.303812,19420.455013,-7975.093748,-172.760135,35.077168,188.624283
202.00000,-4936.717201,19454.134800,-7785.900491,-172.062510,32.281599,189.757696
203.00000,-5108.420584,19485.016663,-7595.587453,-171.340139,29.481387,190.863817
204.00000,-5279.389266,19513.096161,-7404.182007,-170.593126,26.676935,191.942488
205.00000,-5449.598658,19538.369255,-7211.711679,-169.821578,23.868646,192.993554
206.00000,-5619.024280,19560.832309,-7018.204151,-169.025605,21.056925,194.016863
207.00000,-5787.641765,19580.482094,-6823.687255,-168.205323,18.242175,195.012268
208.00000,-5955.426862,19597.315784,-6628.188965,-167.360850,15.424801,195.979626
209.00000,-6122.355441,19611.330957,-6431.737398,-166.492306,12.605209,196.918798
210.00000,-6288.403492,19622.525597,-6234.360809,-165.599817,9.783804,197.829649
211.00000,-6453.547136,19630.898096,-6036.087584,-164.683512,6.960992,198.712048
212.00000,-6617.762621,19636.447247,-5836.946240,-163.743521,4.137178,199.565867
213.00000,-6781.026328,19639.172254,-5636.965417,-162.779980,1.312770,200.390985
214.00000,-6943.314778,19639.072725,-5436.173877,-161.793029,-1.511827,201.187282
215.00000,-7104.604629,19636.148673,-5234.600498,-160.782808,-4.336207,201.954644
216.00000,-7264.872685,19630.400519,-5032.274270,-159.749462,-7.159963,202.692961
217.00000,-7424.095895,19621.829091,-4829.224293,-158.693142,-9.982689,203.402126
218.00000,-7582.251360,19610.435620,-4625.479769,-157.613998,-12.803979,204.082038
219.00000,-7739.316334,19596.221746,-4421.070001,-156.512185,-15.623428,204.732598
220.00000,-7895.268228,19579.189512,-4216.024389,-155.387863,-18.440630,205.353713
221.00000,-8050.084612,19559.341369,-4010.372421,-154.241193,-21.255180,205.945294
222.00000,-8203.743219,19536.680171,-3804.143674,-153.072339,-24.066673,206.507255
223.00000,-8356.221952,19511.209176,-3597.367810,-151.881471,-26.874705,207.039516
224.00000,-8507.498880,19482.932049,-3390.074567,-150.668758,-29.678871,207.542001
225.00000,-8657.552246,19451.852856,-3182.293758,-149.434377,-32.478769,208.014636
226.00000,-8806.360469,19417.976068,-2974.055267,-148.178503,-35.273996,208.457355
227.00000,-8953.902147,19381.306555,-2765.389042,-146.901318,-38.064150,208.870093
228.00000,-9100.156062,19341.849593,-2556.325095,-145.603005,-40.848829,209.252790
229.00000,-9245.101177,19299.610855,-2346.893493,-144.283752,-43.627634,209.605393
230.00000,-9388.716648,19254.596417,-2137.124357,-142.943747,-46.400163,209.927850
231.00000,-9530.981819,19206.812753,-1927.047857,-141.583184,-49.166020,210.220115
232.00000,-9671.876229,19156.266735,-1716.694205,-140.202259,-51.924805,210.482146
233.00000,-9811.379614,19102.965633,-1506.093656,-138.801169,-54.676122,210.713904
234.00000,-9949.471912,19046.917112,-1295.276498,-137.380116,-57.419576,210.915358
235.00000,-10086.133261,18988.129234,-1084.273052,-135.939306,-60.154771,211.086477
236.00000,-10221.344006,18926.610453,-873.113663,-134.478944,-62.881315,211.227238
237.00000,-10355.084702,18862.369617,-661.828702,-132.999242,-65.598816,211.337619
238.00000,-10487.336113,18795.415966,-450.448556,-131.500411,-68.306882,211.417606
239.00000,-10618.079219,18725.759129,-239.003626,-129.982667,-71.005123,211.467186
240.00000,-10747.295217,18653.409124,-27.524321,-128.446230,-73.693153,211.486353
241.00000,-10874.965521,18578.376356,183.958941,-126.891319,-76.370584,211.475103
