"Time (EpMin)","x (km)","y (km)","z (km)","vx (km/min)","vy (km/min)","vz (km/min)"
0.00000,14642.968414,3975.077269,15272.099421,47.671621,230.654203,-105.743309
1.00000,14689.585905,4205.440093,15165.260419,45.562244,230.065922,-107.932136
2.00000,14734.090717,4435.198083,15056.240325,43.446313,229.444552,-110.105439
3.00000,14776.476449,4664.318197,14945.054818,41.324134,228.790183,-112.262908
4.00000,14816.737004,4892.767481,14831.719891,39.196012,228.102909,-114.404230
5.00000,14854.866594,5120.513079,14716.251842,37.062253,227.382829,-116.529099
6.00000,14890.859733,5347.522237,14598.667279,34.923163,226.630046,-118.637208
7.00000,14924.711245,5573.762306,14478.983113,32.779051,225.844669,-120.728255
8.00000,14956.416263,5799.200748,14357.216557,30.630224,225.026811,-122.801939
9.00000,14985.970224,6023.805140,14233.385123,28.476992,224.176589,-124.857960
10.00000,15013.368881,6247.543178,14107.506622,26.319664,223.294125,-126.896025
11.00000,15038.608290,6470.382685,13979.599157,24.158551,222.379547,-128.915839
12.00000,15061.684824,6692.291612,13849.681124,21.993963,221.432986,-130.917113
13.00000,15082.595163,6913.238043,13717.771208,19.826213,220.454579,-132.899557
14.00000,15101.336299,7133.190201,13583.888381,17.655610,219.444465,-134.862888
15.00000,15117.905537,7352.116452,13448.051898,15.482469,218.402790,-136.806823
16.00000,15132.300494,7569.985311,13310.281295,13.307101,217.329704,-138.731081
17.00000,15144.519101,7786.765442,13170.596386,11.129819,216.225362,-140.635388
18.00000,15154.559598,8002.425668,13029.017261,8.950936,215.089922,-142.519468
19.00000,15162.420544,8216.934974,12885.564283,6.770766,213.923547,-144.383050
20.00000,15168.100806,8430.262506,12740.258083,4.589622,212.726405,-146.225867
21.00000,15171.599568,8642.377585,12593.119559,2.407818,211.498669,-148.047654
22.00000,15172.916327,8853.249704,12444.169873,0.225668,210.240514,-149.848148
23.00000,15172.050893,9062.848535,12293.430446,-1.956515,208.952123,-151.627091
24.00000,15169.003391,9271.143932,12140.922960,-4.138416,207.633679,-153.384227
25.00000,15163.774259,9478.105939,11986.669346,-6.319722,206.285374,-155.119302
26.00000,15156.364250,9683.704790,11830.691791,-8.500119,204.907400,-156.832069
27.00000,15146.774428,9887.910916,11673.012728,-10.679294,203.499956,-158.522279
28.00000,15135.006174,10090.694946,11513.654833,-12.856933,202.063244,-160.189690
29.00000,15121.061179,10292.027717,11352.641027,-15.032722,200.597472,-161.834063
30.00000,15104.941450,10491.880272,11189.994466,-17.206350,199.102849,-163.455160
31.00000,15086.649304,10690.223869,11025.738542,-19.377503,197.579590,-165.052749
32.00000,15066.187373,10887.029981,10859.896880,-21.545869,196.027916,-166.626600
33.00000,15043.558599,11082.270303,10692.493330,-23.711136,194.448049,-168.176487
34.00000,15018.766236,11275.916756,10523.551969,-25.872994,192.840215,-169.702186
35.00000,14991.813852,11467.941489,10353.097094,-28.031130,191.204647,-171.203478
36.00000,14962.705321,11658.316884,10181.153221,-30.185234,189.541580,-172.680147
37.00000,14931.444830,11847.015562,10007.745078,-32.334998,187.851253,-174.131982
38.00000,14898.036876,12034.010384,9832.897605,-34.480110,186.133908,-175.558772
39.00000,14862.486263,12219.274456,9656.635950,-36.620264,184.389794,-176.960313
40.00000,14824.798103,12402.781132,9478.985462,-38.755151,182.619160,-178.336404
41.00000,14784.977818,12584.504021,9299.971692,-40.884464,180.822262,-179.686846
42.00000,14743.031134,12764.416987,9119.620385,-43.007898,178.999357,-181.011445
43.00000,14698.964085,12942.494154,8937.957480,-45.125145,177.150709,-182.310010
44.00000,14652.783007,13118.709911,8755.009104,-47.235903,175.276582,-183.582356
45.00000,14604.494543,13293.038915,8570.801569,-49.339867,173.377247,-184.828299
46.00000,14554.105638,13465.456094,8385.361368,-51.436735,171.452977,-186.047659
47.00000,14501.623538,13635.936649,8198.715171,-53.526206,169.504048,-187.240261
48.00000,14447.055792,13804.456063,8010.889822,-55.607978,167.530740,-188.405935
49.00000,14390.410248,13970.990098,7821.912334,-57.681752,165.533338,-189.544511
50.00000,14331.695053,14135.514803,7631.809887,-59.747231,163.512129,-190.655827
51.00000,14270.918651,14298.006517,7440.609820,-61.804117,161.467403,-191.739723
52.00000,14208.089783,14458.441869,7248.339634,-63.852113,159.399455,-192.796042
53.00000,14143.217485,14616.797785,7055.026980,-65.890927,157.308581,-193.824633
54.00000,14076.311088,14773.051490,6860.699661,-67.920264,155.195084,-194.825347
55.00000,14007.380213,14927.180512,6665.385625,-69.939833,153.059266,-195.798042
56.00000,13936.434775,15079.162683,6469.112963,-71.949343,150.901434,-196.742577
57.00000,13863.484977,15228.976146,6271.909903,-73.948505,148.721900,-197.658816
58.00000,13788.541311,15376.599353,6073.804807,-75.937031,146.520976,-198.546627
59.00000,13711.614556,15522.011074,5874.826168,-77.914636,144.298980,-199.405883
60.00000,13632.715774,15665.190395,5675.002601,-79.881036,142.056230,-200.236460
61.00000,13551.856314,15806.116723,5474.362847,-81.835946,139.793049,-201.038239
62.00000,13469.047805,15944.769791,5272.935761,-83.779087,137.509763,-201.811104
63.00000,13384.302156,16081.129657,5070.750313,-85.710179,135.206701,-202.554945
64.00000,13297.631556,16215.176710,4867.835582,-87.628944,132.884192,-203.269653
65.00000,13209.048469,16346.891671,4664.220751,-89.535106,130.542572,-203.955127
66.00000,13118.565637,16476.255597,4459.935105,-91.428390,128.182177,-204.611268
67.00000,13026.196072,16603.249881,4255.008024,-93.308526,125.803347,-205.237982
68.00000,12931.953059,16727.856260,4049.468981,-95.175241,123.406424,-205.835177
69.00000,12835.850152,16850.056812,3843.347537,-97.028269,120.991752,-206.402770
70.00000,12737.901173,16969.833963,3636.673337,-98.867341,118.559679,-206.940677
71.00000,12638.120209,17087.170486,3429.476104,-100.692195,116.110554,-207.448821
72.00000,12536.521611,17202.049505,3221.785640,-102.502566,113.644730,-207.927130
73.00000,12433.119991,17314.454499,3013.631812,-104.298196,111.162562,-208.375535
74.00000,12327.930220,17424.369300,2805.044560,-106.078825,108.664406,-208.793970
75.00000,12220.967427,17531.778101,2596.053881,-107.844198,106.150622,-209.182377
76.00000,12112.246995,17636.665455,2386.689835,-109.594060,103.621571,-209.540698
77.00000,12001.784561,17739.016276,2176.982530,-111.328161,101.077617,-209.868884
78.00000,11889.596011,17838.815843,1966.962129,-113.046250,98.519126,-210.166885
79.00000,11775.697481,17936.049804,1756.658836,-114.748080,95.946466,-210.434660
80.00000,11660.105351,18030.704174,1546.102897,-116.433408,93.360006,-210.672170
81.00000,11542.836247,18122.765341,1335.324596,-118.101989,90.760119,-210.879380
82.00000,11423.907035,18212.220062,1124.354246,-119.753585,88.147180,-211.056262
83.00000,11303.334818,18299.055474,913.222190,-121.387958,85.521562,-211.202789
84.00000,11181.136937,18383.259087,701.958793,-123.004873,82.883645,-211.318941
85.00000,11057.330968,18464.818790,490.594439,-124.604097,80.233807,-211.404701
86.00000,10931.934717,18543.722855,279.159526,-126.185400,77.572430,-211.460056
87.00000,10804.966217,18619.959932,67.684465,-127.748555,74.899897,-211.484998
88.00000,10676.443730,18693.519057,-143.800331,-129.293337,72.216591,-211.479524
89.00000,10546.385740,18764.389651,-355.264445,-130.819524,69.522899,-211.443635
90.00000,10414.810953,18832.561522,-566.677464,-132.326897,66.819208,-211.377336
91.00000,10281.738291,18898.024863,-778.008983,-133.815237,64.105907,-211.280636
92.00000,10147.186894,18960.770261,-989.228608,-135.284333,61.383386,-211.153550
93.00000,10011.176112,19020.788692,-1200.305960,-136.733971,58.652037,-210.996095
94.00000,9873.725507,19078.071523,-1411.210683,-138.163944,55.912252,-210.808294
95.00000,9734.854847,19132.610515,-1621.912442,-139.574046,53.164426,-210.590175
96.00000,9594.584106,19184.397826,-1832.380936,-140.964075,50.408954,-210.341768
97.00000,9452.933456,19233.426006,-2042.585894,-142.333829,47.646232,-210.063109
98.00000,9309.923270,19279.688005,-2252.497084,-143.683114,44.876657,-209.754239
99.00000,9165.574117,19323.177170,-2462.084316,-145.011733,42.100628,-209.415202
100.00000,9019.906757,19363.887244,-2671.317448,-146.319496,39.318545,-209.046046
101.00000,8872.942139,19401.812374,-2880.166386,-147.606216,36.530806,-208.646825
102.00000,8724.701401,19436.947105,-3088.601095,-148.871707,33.737813,-208.217596
103.00000,8575.205863,19469.286383,-3296.591596,-150.115786,30.939969,-207.758421
104.00000,8424.477025,19498.825558,-3504.107976,-151.338276,28.137674,-207.269365
105.00000,8272.536565,19525.560382,-3711.120389,-152.539000,25.331332,-206.750500
106.00000,8119.406337,19549.487009,-3917.599064,-153.717786,22.521348,-206.201900
107.00000,7965.108363,19570.601998,-4123.514303,-154.874464,19.708124,-205.623643
108.00000,7809.664834,19588.902312,-4328.836492,-156.008867,16.892066,-205.015813
109.00000,7653.098107,19604.385320,-4533.536101,-157.120833,14.073578,-204.378498
110.00000,7495.430700,19617.048795,-4737.583690,-158.210202,11.253067,-203.711788
111.00000,7336.685288,19626.890914,-4940.949912,-159.276817,8.430937,-203.015781
112.00000,7176.884702,19633.910264,-5143.605518,-160.320524,5.607594,-202.290575
113.00000,7016.051926,19638.105833,-5345.521364,-161.341174,2.783445,-201.536276
114.00000,6854.210090,19639.477020,-5546.668408,-162.338619,-0.041105,-200.752991
115.00000,6691.382471,19638.023626,-5747.017722,-163.312716,-2.865648,-199.940834
116.00000,6527.592486,19633.745861,-5946.540490,-164.263326,-5.689780,-199.099921
117.00000,6362.863693,19626.644340,-6145.208018,-165.190311,-8.513093,-198.230373
118.00000,6197.219783,19616.720084,-6342.991732,-166.093538,-11.335181,-197.332315
119.00000,6030.684580,19603.974520,-6539.863187,-166.972877,-14.155640,-196.405877
120.00000,5863.282033,19588.409482,-6735.794069,-167.828202,-16.974063,-195.451191
121.00000,5695.036221,19570.027209,-6930.756199,-168.659390,-19.790044,-194.468395
122.00000,5525.971339,19548.830343,-7124.721536,-169.466321,-22.603179,-193.457630
123.00000,5356.111703,19524.821935,-7317.662185,-170.248879,-25.413063,-192.419042
124.00000,5185.481743,19498.005435,-7509.550396,-171.006951,-28.219293,-191.352780
125.00000,5014.105999,19468.384702,-7700.358571,-171.740429,-31.021464,-190.258997
126.00000,4842.009119,19435.963995,-7890.059269,-172.449207,-33.819173,-189.137851
127.00000,4669.215853,19400.747978,-8078.625207,-173.133183,-36.612018,-187.989503
128.00000,4495.751053,19362.741714,-8266.029263,-173.792259,-39.399598,-186.814118
129.00000,4321.639667,19321.950671,-8452.244487,-174.426339,-42.181511,-185.611865
130.00000,4146.906736,19278.380714,-8637.244095,-175.035334,-44.957358,-184.382917
131.00000,3971.577390,19232.038111,-8821.001482,-175.619154,-47.726738,-183.127451
132.00000,3795.676846,19182.929525,-9003.490218,-176.177717,-50.489255,-181.845647
133.00000,3619.230402,19131.062021,-9184.684058,-176.710942,-53.244510,-180.537690
134.00000,3442.263434,19076.443057,-9364.556943,-177.218751,-55.992108,-179.203767
135.00000,3264.801395,19019.080490,-9543.083002,-177.701073,-58.731652,-177.844072
136.00000,3086.869807,18958.982568,-9720.236560,-178.157838,-61.462750,-176.458798
137.00000,2908.494260,18896.157936,-9895.992138,-178.588980,-64.185008,-175.048146
138.00000,2729.700409,18830.615629,-10070.324460,-178.994436,-66.898035,-173.612318
139.00000,2550.513969,18762.365073,-10243.208451,-179.374150,-69.601441,-172.151521
140.00000,2370.960709,18691.416084,-10414.619248,-179.728065,-72.294836,-170.665965
141.00000,2191.066454,18617.778867,-10584.532199,-180.056132,-74.977834,-169.155863
142.00000,2010.857077,18541.464011,-10752.922865,-180.358303,-77.650048,-167.621433
143.00000,1830.358495,18462.482493,-10919.767029,-180.634534,-80.311095,-166.062896
144.00000,1649.596668,18380.845672,-11085.040695,-180.884787,-82.960591,-164.480475
145.00000,1468.597593,18296.565289,-11248.720093,-181.109024,-85.598155,-162.874398
146.00000,1287.387302,18209.653465,-11410.781683,-181.307214,-88.223409,-161.244896
147.00000,1105.991858,18120.122700,-11571.202156,-181.479328,-90.835974,-159.592204
148.00000,924.437347,18027.985871,-11729.958440,-181.625341,-93.435475,-157.916559
149.00000,742.749883,17933.256229,-11887.027704,-181.745232,-96.021539,-156.218203
150.00000,560.955596,17835.947398,-12042.387357,-181.838985,-98.593792,-154.497379
151.00000,379.080630,17736.073372,-12196.015055,-181.906586,-101.151865,-152.754334
152.00000,197.151145,17633.648517,-12347.888702,-181.948024,-103.695390,-150.989321
153.00000,15.193305,17528.687563,-12497.986457,-181.963294,-106.224002,-149.202591
154.00000,-166.766719,17421.205606,-12646.286732,-181.952394,-108.737336,-147.394404
155.00000,-348.702760,17311.218103,-12792.768198,-181.915325,-111.235032,-145.565017
156.00000,-530.588649,17198.740874,-12937.409789,-181.852093,-113.716730,-143.714696
157.00000,-712.398228,17083.790095,-13080.190700,-181.762707,-116.182073,-141.843705
158.00000,-894.105349,16966.382299,-13221.090398,-181.647179,-118.630706,-139.952314
159.00000,-1075.683878,16846.534371,-13360.088619,-181.505527,-121.062277,-138.040795
160.00000,-1257.107701,16724.263547,-13497.165370,-181.337770,-123.476438,-136.109422
161.00000,-1438.350725,16599.587415,-13632.300938,-181.143933,-125.872839,-134.158474
162.00000,-1619.386882,16472.523903,-13765.475887,-180.924043,-128.251138,-132.188231
163.00000,-1800.190137,16343.091287,-13896.671063,-180.678133,-130.610991,-130.198977
164.00000,-1980.734486,16211.308183,-14025.867599,-180.406237,-132.952060,-128.190997
165.00000,-2160.993963,16077.193542,-14153.046912,-180.108395,-135.274007,-126.164581
166.00000,-2340.942642,15940.766654,-14278.190712,-179.784649,-137.576498,-124.120019
167.00000,-2520.554642,15802.047141,-14401.281001,-179.435047,-139.859204,-122.057607
168.00000,-2699.804133,15661.054952,-14522.300074,-179.059638,-142.121794,-119.977639
169.00000,-2878.665334,15517.810366,-14641.230527,-178.658476,-144.363945,-117.880417
170.00000,-3057.112520,15372.333983,-14758.055256,-178.231619,-146.585332,-115.766240
171.00000,-3235.120028,15224.646728,-14872.757458,-177.779129,-148.785638,-113.635414
172.00000,-3412.662256,15074.769840,-14985.320637,-177.301071,-150.964545,-111.488245
173.00000,-3589.713669,14922.724875,-15095.728604,-176.797512,-153.121740,-109.325041
174.00000,-3766.248804,14768.533701,-15203.965479,-176.268526,-155.256913,-107.146114
175.00000,-3942.242272,14612.218492,-15310.015696,-175.714190,-157.369757,-104.951778
176.00000,-4117.668760,14453.801732,-15413.864002,-175.134581,-159.459967,-102.742346
177.00000,-4292.503038,14293.306203,-15515.495463,-174.529785,-161.527244,-100.518139
178.00000,-4466.719962,14130.754989,-15614.895460,-173.899887,-163.571289,-98.279474
179.00000,-4640.294475,13966.171467,-15712.049699,-173.244979,-165.591809,-96.026675
180.00000,-4813.201613,13799.579308,-15806.944207,-172.565154,-167.588514,-93.760065
181.00000,-4985.416510,13631.002473,-15899.565334,-171.860511,-169.561116,-91.479970
182.00000,-5156.914396,13460.465205,-15989.899762,-171.131150,-171.509332,-89.186719
183.00000,-5327.670606,13287.992032,-16077.934497,-170.377178,-173.432880,-86.880641
184.00000,-5497.660583,13113.607759,-16163.656878,-169.598701,-175.331485,-84.562067
185.00000,-5666.859877,12937.337466,-16247.054576,-168.795832,-177.204874,-82.231331
186.00000,-5835.244155,12759.206506,-16328.115598,-167.968687,-179.052777,-79.888769
187.00000,-6002.789199,12579.240496,-16406.828285,-167.117384,-180.874928,-77.534717
188.00000,-6169.470912,12397.465320,-16483.181316,-166.242047,-182.671066,-75.169514
189.00000,-6335.265322,12213.907122,-16557.163710,-165.342800,-184.440931,-72.793500
190.00000,-6500.148585,12028.592300,-16628.764827,-164.419773,-186.184270,-70.407017
191.00000,-6664.096986,11841.547507,-16697.974368,-163.473099,-187.900832,-68.010408
192.00000,-6827.086946,11652.799644,-16764.782381,-162.502914,-189.590369,-65.604017
193.00000,-6989.095024,11462.375857,-16829.179257,-161.509358,-191.252640,-63.188191
194.00000,-7150.097919,11270.303534,-16891.155733,-160.492573,-192.887404,-60.763277
195.00000,-7310.072475,11076.610297,-16950.702898,-159.452706,-194.494426,-58.329624
196.00000,-7468.995686,10881.324006,-17007.812185,-158.389906,-196.073476,-55.887582
197.00000,-7626.844694,10684.472745,-17062.475382,-157.304326,-197.624327,-53.437502
198.00000,-7783.596798,10486.084826,-17114.684628,-156.196123,-199.146755,-50.979737
199.00000,-7939.229452,10286.188783,-17164.432412,-155.065455,-200.640541,-48.514640
200.00000,-8093.720274,10084.813363,-17211.711581,-153.912485,-202.105471,-46.042565
201.00000,-8247.047044,9881.987530,-17256.515335,-152.737380,-203.541334,-43.563868
202.00000,-8399.187711,9677.740454,-17298.837230,-151.540307,-204.947923,-41.078906
203.00000,-8550.120394,9472.101510,-17338.671178,-150.321440,-206.325036,-38.588036
204.00000,-8699.823385,9265.100274,-17376.011452,-149.080953,-207.672475,-36.091616
205.00000,-8848.275153,9056.766516,-17410.852681,-147.819026,-208.990046,-33.590006
206.00000,-8995.454349,8847.130201,-17443.189853,-146.535838,-210.277560,-31.083564
207.00000,-9141.339805,8636.221477,-17473.018319,-145.231576,-211.534832,-28.572652
208.00000,-9285.910539,8424.070678,-17500.333788,-143.906426,-212.761680,-26.057631
209.00000,-9429.145758,8210.708316,-17525.132331,-142.560580,-213.957929,-23.538862
210.00000,-9571.024863,7996.165077,-17547.410382,-141.194230,-215.123406,-21.016707
211.00000,-9711.527449,7780.471817,-17567.164738,-139.807573,-216.257944,-18.491530
212.00000,-9850.633307,7563.659557,-17584.392556,-138.400809,-217.361378,-15.963693
213.00000,-9988.322431,7345.759480,-17599.091359,-136.974140,-218.433552,-13.433561
214.00000,-10124.575020,7126.802925,-17611.259033,-135.527771,-219.474310,-10.901496
215.00000,-10259.371476,6906.821381,-17620.893829,-134.061910,-220.483504,-8.367864
216.00000,-10392.692413,6685.846488,-17627.994360,-132.576769,-221.460986,-5.833028
217.00000,-10524.518657,6463.910025,-17632.559605,-131.072559,-222.406618,-3.297353
218.00000,-10654.831249,6241.043913,-17634.588907,-129.549499,-223.320263,-0.761204
219.00000,-10783.611445,6017.280205,-17634.081976,-128.007807,-224.201790,1.775055
220.00000,-10910.840726,5792.651081,-17631.038883,-126.447705,-225.051072,4.311058
221.00000,-11036.500793,5567.188850,-17625.460067,-124.869416,-225.867987,6.846441
222.00000,-11160.573573,5340.925936,-17617.346329,-123.273169,-226.652416,9.380840
223.00000,-11283.041221,5113.894883,-17606.698837,-121.659192,-227.404249,11.913889
224.00000,-11403.886125,4886.128340,-17593.519122,-120.027719,-228.123376,14.445225
225.00000,-11523.090904,4657.659068,-17577.809079,-118.378982,-228.809693,16.974484
226.00000,-11640.638414,4428.519923,-17559.570968,-116.713220,-229.463103,19.501301
227.00000,-11756.511750,4198.743862,-17538.807413,-115.030673,-230.083511,22.025313
228.00000,-11870.694245,3968.363931,-17515.521398,-113.331581,-230.670829,24.546158
229.00000,-11983.169478,3737.413263,-17489.716274,-111.616190,-231.224970,27.063472
230.00000,-12093.921274,3505.925075,-17461.395752,-109.884746,-231.745857,29.576894
231.00000,-12202.933702,3273.932659,-17430.563904,-108.137498,-232.233414,32.086063
232.00000,-12310.191086,3041.469382,-17397.225165,-106.374698,-232.687570,34.590616
233.00000,-12415.677998,2808.568675,-17361.384330,-104.596599,-233.108261,37.090195
234.00000,-12519.379269,2575.264035,-17323.046553,-102.803456,-233.495426,39.584439
235.00000,-12621.279982,2341.589017,-17282.217349,-100.995528,-233.849009,42.072991
236.00000,-12721.365483,2107.577228,-17238.902589,-99.173075,-234.168960,44.555491
237.00000,-12819.621378,1873.262324,-17193.108503,-97.336359,-234.455232,47.031583
238.00000,-12916.033534,1638.678005,-17144.841677,-95.485643,-234.707784,49.500911
239.00000,-13010.588087,1403.858008,-17094.109054,-93.621195,-234.926581,51.963120
240.00000,-13103.271436,1168.836106,-17040.917928,-91.743282,-235.111590,54.417855
